 72   Amps (Ilim=180) 
 0.2   r0[m] 
 401   Nz data points 
 z[m]  EngeProd 
 -1   0.00206969 
 -0.995   0.00217303 
 -0.99   0.00228101 
 -0.985   0.00239383 
 -0.98   0.00251168 
 -0.975   0.00263477 
 -0.97   0.00276331 
 -0.965   0.00289752 
 -0.96   0.00303763 
 -0.955   0.00318387 
 -0.95   0.00333648 
 -0.945   0.00349574 
 -0.94   0.00366189 
 -0.935   0.00383523 
 -0.93   0.00401602 
 -0.925   0.00420457 
 -0.92   0.00440119 
 -0.915   0.0046062 
 -0.91   0.00481993 
 -0.905   0.00504273 
 -0.9   0.00527495 
 -0.895   0.00551697 
 -0.89   0.00576917 
 -0.885   0.00603196 
 -0.88   0.00630576 
 -0.875   0.006591 
 -0.87   0.00688814 
 -0.865   0.00719763 
 -0.86   0.00751998 
 -0.855   0.00785568 
 -0.85   0.00820527 
 -0.845   0.00856928 
 -0.84   0.0089483 
 -0.835   0.00934291 
 -0.83   0.00975373 
 -0.825   0.0101814 
 -0.82   0.0106266 
 -0.815   0.01109 
 -0.81   0.0115723 
 -0.805   0.0120742 
 -0.8   0.0125967 
 -0.795   0.0131403 
 -0.79   0.0137061 
 -0.785   0.0142949 
 -0.78   0.0149075 
 -0.775   0.015545 
 -0.77   0.0162083 
 -0.765   0.0168984 
 -0.76   0.0176165 
 -0.755   0.0183636 
 -0.75   0.0191408 
 -0.745   0.0199494 
 -0.74   0.0207906 
 -0.735   0.0216657 
 -0.73   0.0225761 
 -0.725   0.0235232 
 -0.72   0.0245083 
 -0.715   0.0255332 
 -0.71   0.0265992 
 -0.705   0.0277081 
 -0.7   0.0288616 
 -0.695   0.0300615 
 -0.69   0.0313095 
 -0.685   0.0326077 
 -0.68   0.0339579 
 -0.675   0.0353624 
 -0.67   0.0368231 
 -0.665   0.0383424 
 -0.66   0.0399227 
 -0.655   0.0415662 
 -0.65   0.0432755 
 -0.645   0.0450532 
 -0.64   0.0469019 
 -0.635   0.0488246 
 -0.63   0.050824 
 -0.625   0.0529032 
 -0.62   0.0550654 
 -0.615   0.0573136 
 -0.61   0.0596512 
 -0.605   0.0620818 
 -0.6   0.0646088 
 -0.595   0.067236 
 -0.59   0.0699671 
 -0.585   0.0728062 
 -0.58   0.0757571 
 -0.575   0.0788243 
 -0.57   0.0820118 
 -0.565   0.0853242 
 -0.56   0.0887661 
 -0.555   0.0923421 
 -0.55   0.096057 
 -0.545   0.0999157 
 -0.54   0.103923 
 -0.535   0.108085 
 -0.53   0.112406 
 -0.525   0.116892 
 -0.52   0.121547 
 -0.515   0.126379 
 -0.51   0.131392 
 -0.505   0.136592 
 -0.5   0.141984 
 -0.495   0.147575 
 -0.49   0.153371 
 -0.485   0.159376 
 -0.48   0.165598 
 -0.475   0.172042 
 -0.47   0.178713 
 -0.465   0.185617 
 -0.46   0.19276 
 -0.455   0.200147 
 -0.45   0.207783 
 -0.445   0.215674 
 -0.44   0.223824 
 -0.435   0.232237 
 -0.43   0.240919 
 -0.425   0.249872 
 -0.42   0.2591 
 -0.415   0.268606 
 -0.41   0.278393 
 -0.405   0.288462 
 -0.4   0.298816 
 -0.395   0.309453 
 -0.39   0.320375 
 -0.385   0.331581 
 -0.38   0.343069 
 -0.375   0.354836 
 -0.37   0.36688 
 -0.365   0.379196 
 -0.36   0.391779 
 -0.355   0.404622 
 -0.35   0.417719 
 -0.345   0.431061 
 -0.34   0.444638 
 -0.335   0.45844 
 -0.33   0.472456 
 -0.325   0.486673 
 -0.32   0.501077 
 -0.315   0.515654 
 -0.31   0.530386 
 -0.305   0.545259 
 -0.3   0.560254 
 -0.295   0.575352 
 -0.29   0.590535 
 -0.285   0.605783 
 -0.28   0.621074 
 -0.275   0.636387 
 -0.27   0.651702 
 -0.265   0.666997 
 -0.26   0.682249 
 -0.255   0.697436 
 -0.25   0.712538 
 -0.245   0.727531 
 -0.24   0.742395 
 -0.235   0.757109 
 -0.23   0.771652 
 -0.225   0.786004 
 -0.22   0.800147 
 -0.215   0.814061 
 -0.21   0.827732 
 -0.205   0.84114 
 -0.2   0.854273 
 -0.195   0.867115 
 -0.19   0.879654 
 -0.185   0.891878 
 -0.18   0.903777 
 -0.175   0.915341 
 -0.17   0.926563 
 -0.165   0.937435 
 -0.16   0.947953 
 -0.155   0.958111 
 -0.15   0.967906 
 -0.145   0.977336 
 -0.14   0.9864 
 -0.135   0.995096 
 -0.13   1.00343 
 -0.125   1.01139 
 -0.12   1.01899 
 -0.115   1.02624 
 -0.11   1.03312 
 -0.105   1.03965 
 -0.1   1.04583 
 -0.095   1.05167 
 -0.09   1.05717 
 -0.085   1.06233 
 -0.08   1.06716 
 -0.075   1.07167 
 -0.07   1.07585 
 -0.065   1.07973 
 -0.06   1.08329 
 -0.055   1.08655 
 -0.05   1.0895 
 -0.045   1.09217 
 -0.04   1.09454 
 -0.035   1.09662 
 -0.03   1.09841 
 -0.025   1.09993 
 -0.02   1.10117 
 -0.015   1.10213 
 -0.01   1.10281 
 -0.005   1.10322 
 8.20524e-16   1.10336 
 0.005   1.10322 
 0.01   1.10281 
 0.015   1.10213 
 0.02   1.10117 
 0.025   1.09993 
 0.03   1.09841 
 0.035   1.09662 
 0.04   1.09454 
 0.045   1.09217 
 0.05   1.0895 
 0.055   1.08655 
 0.06   1.08329 
 0.065   1.07973 
 0.07   1.07585 
 0.075   1.07167 
 0.08   1.06716 
 0.085   1.06233 
 0.09   1.05717 
 0.095   1.05167 
 0.1   1.04583 
 0.105   1.03965 
 0.11   1.03312 
 0.115   1.02624 
 0.12   1.01899 
 0.125   1.01139 
 0.13   1.00343 
 0.135   0.995096 
 0.14   0.9864 
 0.145   0.977336 
 0.15   0.967906 
 0.155   0.958111 
 0.16   0.947953 
 0.165   0.937435 
 0.17   0.926563 
 0.175   0.915341 
 0.18   0.903777 
 0.185   0.891878 
 0.19   0.879654 
 0.195   0.867115 
 0.2   0.854273 
 0.205   0.84114 
 0.21   0.827732 
 0.215   0.814061 
 0.22   0.800147 
 0.225   0.786004 
 0.23   0.771652 
 0.235   0.757109 
 0.24   0.742395 
 0.245   0.727531 
 0.25   0.712538 
 0.255   0.697436 
 0.26   0.682249 
 0.265   0.666997 
 0.27   0.651702 
 0.275   0.636387 
 0.28   0.621074 
 0.285   0.605783 
 0.29   0.590535 
 0.295   0.575352 
 0.3   0.560254 
 0.305   0.545259 
 0.31   0.530386 
 0.315   0.515654 
 0.32   0.501077 
 0.325   0.486673 
 0.33   0.472456 
 0.335   0.45844 
 0.34   0.444638 
 0.345   0.431061 
 0.35   0.417719 
 0.355   0.404622 
 0.36   0.391779 
 0.365   0.379196 
 0.37   0.36688 
 0.375   0.354836 
 0.38   0.343069 
 0.385   0.331581 
 0.39   0.320375 
 0.395   0.309453 
 0.4   0.298816 
 0.405   0.288462 
 0.41   0.278393 
 0.415   0.268606 
 0.42   0.2591 
 0.425   0.249872 
 0.43   0.240919 
 0.435   0.232237 
 0.44   0.223824 
 0.445   0.215674 
 0.45   0.207783 
 0.455   0.200147 
 0.46   0.19276 
 0.465   0.185617 
 0.47   0.178713 
 0.475   0.172042 
 0.48   0.165598 
 0.485   0.159376 
 0.49   0.153371 
 0.495   0.147575 
 0.5   0.141984 
 0.505   0.136592 
 0.51   0.131392 
 0.515   0.126379 
 0.52   0.121547 
 0.525   0.116892 
 0.53   0.112406 
 0.535   0.108085 
 0.54   0.103923 
 0.545   0.0999157 
 0.55   0.096057 
 0.555   0.0923421 
 0.56   0.0887661 
 0.565   0.0853242 
 0.57   0.0820118 
 0.575   0.0788243 
 0.58   0.0757571 
 0.585   0.0728062 
 0.59   0.0699671 
 0.595   0.067236 
 0.6   0.0646088 
 0.605   0.0620818 
 0.61   0.0596512 
 0.615   0.0573136 
 0.62   0.0550654 
 0.625   0.0529032 
 0.63   0.050824 
 0.635   0.0488246 
 0.64   0.0469019 
 0.645   0.0450532 
 0.65   0.0432755 
 0.655   0.0415662 
 0.66   0.0399227 
 0.665   0.0383424 
 0.67   0.0368231 
 0.675   0.0353624 
 0.68   0.0339579 
 0.685   0.0326077 
 0.69   0.0313095 
 0.695   0.0300615 
 0.7   0.0288616 
 0.705   0.0277081 
 0.71   0.0265992 
 0.715   0.0255332 
 0.72   0.0245083 
 0.725   0.0235232 
 0.73   0.0225761 
 0.735   0.0216657 
 0.74   0.0207906 
 0.745   0.0199494 
 0.75   0.0191408 
 0.755   0.0183636 
 0.76   0.0176165 
 0.765   0.0168984 
 0.77   0.0162083 
 0.775   0.015545 
 0.78   0.0149075 
 0.785   0.0142949 
 0.79   0.0137061 
 0.795   0.0131403 
 0.8   0.0125967 
 0.805   0.0120742 
 0.81   0.0115723 
 0.815   0.01109 
 0.82   0.0106266 
 0.825   0.0101814 
 0.83   0.00975373 
 0.835   0.00934291 
 0.84   0.0089483 
 0.845   0.00856928 
 0.85   0.00820527 
 0.855   0.00785568 
 0.86   0.00751998 
 0.865   0.00719763 
 0.87   0.00688814 
 0.875   0.006591 
 0.88   0.00630576 
 0.885   0.00603196 
 0.89   0.00576917 
 0.895   0.00551697 
 0.9   0.00527495 
 0.905   0.00504273 
 0.91   0.00481993 
 0.915   0.0046062 
 0.92   0.00440119 
 0.925   0.00420457 
 0.93   0.00401602 
 0.935   0.00383523 
 0.94   0.00366189 
 0.945   0.00349574 
 0.95   0.00333648 
 0.955   0.00318387 
 0.96   0.00303763 
 0.965   0.00289752 
 0.97   0.00276331 
 0.975   0.00263477 
 0.98   0.00251168 
 0.985   0.00239383 
 0.99   0.00228101 
 0.995   0.00217303 
