 36   Amps (Ilim=180) 
 0.2   r0[m] 
 401   Nz data points 
 z[m]  EngeProd 
 -1   0.00140511 
 -0.995   0.0014746 
 -0.99   0.00154707 
 -0.985   0.00162262 
 -0.98   0.00170137 
 -0.975   0.00178344 
 -0.97   0.00186895 
 -0.965   0.00195802 
 -0.96   0.00205078 
 -0.955   0.00214737 
 -0.95   0.00224791 
 -0.945   0.00235257 
 -0.94   0.00246147 
 -0.935   0.00257478 
 -0.93   0.00269265 
 -0.925   0.00281525 
 -0.92   0.00294273 
 -0.915   0.00307529 
 -0.91   0.00321309 
 -0.905   0.00335632 
 -0.9   0.00350519 
 -0.895   0.00365987 
 -0.89   0.0038206 
 -0.885   0.00398756 
 -0.88   0.004161 
 -0.875   0.00434114 
 -0.87   0.00452821 
 -0.865   0.00472246 
 -0.86   0.00492416 
 -0.855   0.00513355 
 -0.85   0.00535093 
 -0.845   0.00557656 
 -0.84   0.00581076 
 -0.835   0.00605381 
 -0.83   0.00630605 
 -0.825   0.00656779 
 -0.82   0.00683939 
 -0.815   0.0071212 
 -0.81   0.00741357 
 -0.805   0.0077169 
 -0.8   0.00803159 
 -0.795   0.00835804 
 -0.79   0.00869667 
 -0.785   0.00904795 
 -0.78   0.00941232 
 -0.775   0.00979026 
 -0.77   0.0101823 
 -0.765   0.0105889 
 -0.76   0.0110106 
 -0.755   0.011448 
 -0.75   0.0119017 
 -0.745   0.0123723 
 -0.74   0.0128603 
 -0.735   0.0133665 
 -0.73   0.0138915 
 -0.725   0.0144361 
 -0.72   0.0150009 
 -0.715   0.0155867 
 -0.71   0.0161943 
 -0.705   0.0168246 
 -0.7   0.0174783 
 -0.695   0.0181565 
 -0.69   0.0188599 
 -0.685   0.0195896 
 -0.68   0.0203465 
 -0.675   0.0211318 
 -0.67   0.0219464 
 -0.665   0.0227915 
 -0.66   0.0236683 
 -0.655   0.0245779 
 -0.65   0.0255216 
 -0.645   0.0265008 
 -0.64   0.0275167 
 -0.635   0.0285708 
 -0.63   0.0296645 
 -0.625   0.0307994 
 -0.62   0.031977 
 -0.615   0.0331989 
 -0.61   0.0344669 
 -0.605   0.0357826 
 -0.6   0.0371478 
 -0.595   0.0385645 
 -0.59   0.0400345 
 -0.585   0.0415599 
 -0.58   0.0431428 
 -0.575   0.0447851 
 -0.57   0.0464893 
 -0.565   0.0482574 
 -0.56   0.0500919 
 -0.555   0.0519951 
 -0.55   0.0539695 
 -0.545   0.0560177 
 -0.54   0.0581423 
 -0.535   0.0603458 
 -0.53   0.0626311 
 -0.525   0.065001 
 -0.52   0.0674582 
 -0.515   0.0700057 
 -0.51   0.0726464 
 -0.505   0.0753833 
 -0.5   0.0782195 
 -0.495   0.081158 
 -0.49   0.0842018 
 -0.485   0.0873542 
 -0.48   0.0906181 
 -0.475   0.0939967 
 -0.47   0.0974931 
 -0.465   0.10111 
 -0.46   0.104851 
 -0.455   0.108719 
 -0.45   0.112717 
 -0.445   0.116847 
 -0.44   0.121112 
 -0.435   0.125514 
 -0.43   0.130057 
 -0.425   0.134742 
 -0.42   0.139571 
 -0.415   0.144546 
 -0.41   0.149668 
 -0.405   0.154939 
 -0.4   0.160359 
 -0.395   0.165929 
 -0.39   0.17165 
 -0.385   0.17752 
 -0.38   0.183539 
 -0.375   0.189707 
 -0.37   0.196021 
 -0.365   0.202479 
 -0.36   0.209079 
 -0.355   0.215817 
 -0.35   0.222689 
 -0.345   0.229691 
 -0.34   0.236818 
 -0.335   0.244065 
 -0.33   0.251424 
 -0.325   0.258888 
 -0.32   0.266451 
 -0.315   0.274104 
 -0.31   0.281838 
 -0.305   0.289645 
 -0.3   0.297513 
 -0.295   0.305432 
 -0.29   0.313393 
 -0.285   0.321383 
 -0.28   0.32939 
 -0.275   0.337404 
 -0.27   0.345412 
 -0.265   0.353401 
 -0.26   0.36136 
 -0.255   0.369276 
 -0.25   0.377137 
 -0.245   0.38493 
 -0.24   0.392643 
 -0.235   0.400266 
 -0.23   0.407787 
 -0.225   0.415194 
 -0.22   0.422478 
 -0.215   0.429628 
 -0.21   0.436636 
 -0.205   0.443493 
 -0.2   0.450191 
 -0.195   0.456723 
 -0.19   0.463082 
 -0.185   0.469263 
 -0.18   0.47526 
 -0.175   0.48107 
 -0.17   0.486689 
 -0.165   0.492115 
 -0.16   0.497344 
 -0.155   0.502377 
 -0.15   0.507211 
 -0.145   0.511848 
 -0.14   0.516288 
 -0.135   0.520531 
 -0.13   0.52458 
 -0.125   0.528436 
 -0.12   0.532101 
 -0.115   0.535579 
 -0.11   0.538872 
 -0.105   0.541983 
 -0.1   0.544917 
 -0.095   0.547676 
 -0.09   0.550265 
 -0.085   0.552687 
 -0.08   0.554945 
 -0.075   0.557044 
 -0.07   0.558988 
 -0.065   0.56078 
 -0.06   0.562423 
 -0.055   0.563922 
 -0.05   0.565279 
 -0.045   0.566496 
 -0.04   0.567578 
 -0.035   0.568526 
 -0.03   0.569344 
 -0.025   0.570032 
 -0.02   0.570592 
 -0.015   0.571026 
 -0.01   0.571336 
 -0.005   0.571521 
 8.20524e-16   0.571583 
 0.005   0.571521 
 0.01   0.571336 
 0.015   0.571026 
 0.02   0.570592 
 0.025   0.570032 
 0.03   0.569344 
 0.035   0.568526 
 0.04   0.567578 
 0.045   0.566496 
 0.05   0.565279 
 0.055   0.563922 
 0.06   0.562423 
 0.065   0.56078 
 0.07   0.558988 
 0.075   0.557044 
 0.08   0.554945 
 0.085   0.552687 
 0.09   0.550265 
 0.095   0.547676 
 0.1   0.544917 
 0.105   0.541983 
 0.11   0.538872 
 0.115   0.535579 
 0.12   0.532101 
 0.125   0.528436 
 0.13   0.52458 
 0.135   0.520531 
 0.14   0.516288 
 0.145   0.511848 
 0.15   0.507211 
 0.155   0.502377 
 0.16   0.497344 
 0.165   0.492115 
 0.17   0.486689 
 0.175   0.48107 
 0.18   0.47526 
 0.185   0.469263 
 0.19   0.463082 
 0.195   0.456723 
 0.2   0.450191 
 0.205   0.443493 
 0.21   0.436636 
 0.215   0.429628 
 0.22   0.422478 
 0.225   0.415194 
 0.23   0.407787 
 0.235   0.400266 
 0.24   0.392643 
 0.245   0.38493 
 0.25   0.377137 
 0.255   0.369276 
 0.26   0.36136 
 0.265   0.353401 
 0.27   0.345412 
 0.275   0.337404 
 0.28   0.32939 
 0.285   0.321383 
 0.29   0.313393 
 0.295   0.305432 
 0.3   0.297513 
 0.305   0.289645 
 0.31   0.281838 
 0.315   0.274104 
 0.32   0.266451 
 0.325   0.258888 
 0.33   0.251424 
 0.335   0.244065 
 0.34   0.236818 
 0.345   0.229691 
 0.35   0.222689 
 0.355   0.215817 
 0.36   0.209079 
 0.365   0.202479 
 0.37   0.196021 
 0.375   0.189707 
 0.38   0.183539 
 0.385   0.17752 
 0.39   0.17165 
 0.395   0.165929 
 0.4   0.160359 
 0.405   0.154939 
 0.41   0.149668 
 0.415   0.144546 
 0.42   0.139571 
 0.425   0.134742 
 0.43   0.130057 
 0.435   0.125514 
 0.44   0.121112 
 0.445   0.116847 
 0.45   0.112717 
 0.455   0.108719 
 0.46   0.104851 
 0.465   0.10111 
 0.47   0.0974931 
 0.475   0.0939967 
 0.48   0.0906181 
 0.485   0.0873542 
 0.49   0.0842018 
 0.495   0.081158 
 0.5   0.0782195 
 0.505   0.0753833 
 0.51   0.0726464 
 0.515   0.0700057 
 0.52   0.0674582 
 0.525   0.065001 
 0.53   0.0626311 
 0.535   0.0603458 
 0.54   0.0581423 
 0.545   0.0560177 
 0.55   0.0539695 
 0.555   0.0519951 
 0.56   0.0500919 
 0.565   0.0482574 
 0.57   0.0464893 
 0.575   0.0447851 
 0.58   0.0431428 
 0.585   0.0415599 
 0.59   0.0400345 
 0.595   0.0385645 
 0.6   0.0371478 
 0.605   0.0357826 
 0.61   0.0344669 
 0.615   0.0331989 
 0.62   0.031977 
 0.625   0.0307994 
 0.63   0.0296645 
 0.635   0.0285708 
 0.64   0.0275167 
 0.645   0.0265008 
 0.65   0.0255216 
 0.655   0.0245779 
 0.66   0.0236683 
 0.665   0.0227915 
 0.67   0.0219464 
 0.675   0.0211318 
 0.68   0.0203465 
 0.685   0.0195896 
 0.69   0.0188599 
 0.695   0.0181565 
 0.7   0.0174783 
 0.705   0.0168246 
 0.71   0.0161943 
 0.715   0.0155867 
 0.72   0.0150009 
 0.725   0.0144361 
 0.73   0.0138915 
 0.735   0.0133665 
 0.74   0.0128603 
 0.745   0.0123723 
 0.75   0.0119017 
 0.755   0.011448 
 0.76   0.0110106 
 0.765   0.0105889 
 0.77   0.0101823 
 0.775   0.00979026 
 0.78   0.00941232 
 0.785   0.00904795 
 0.79   0.00869667 
 0.795   0.00835804 
 0.8   0.00803159 
 0.805   0.0077169 
 0.81   0.00741357 
 0.815   0.0071212 
 0.82   0.00683939 
 0.825   0.00656779 
 0.83   0.00630605 
 0.835   0.00605381 
 0.84   0.00581076 
 0.845   0.00557656 
 0.85   0.00535093 
 0.855   0.00513355 
 0.86   0.00492416 
 0.865   0.00472246 
 0.87   0.00452821 
 0.875   0.00434114 
 0.88   0.004161 
 0.885   0.00398756 
 0.89   0.0038206 
 0.895   0.00365987 
 0.9   0.00350519 
 0.905   0.00335632 
 0.91   0.00321309 
 0.915   0.00307529 
 0.92   0.00294273 
 0.925   0.00281525 
 0.93   0.00269265 
 0.935   0.00257478 
 0.94   0.00246147 
 0.945   0.00235257 
 0.95   0.00224791 
 0.955   0.00214737 
 0.96   0.00205078 
 0.965   0.00195802 
 0.97   0.00186895 
 0.975   0.00178344 
 0.98   0.00170137 
 0.985   0.00162262 
 0.99   0.00154707 
 0.995   0.0014746 
