 90   Amps (Ilim=180) 
 0.2   r0[m] 
 401   Nz data points 
 z[m]  EngeProd 
 -1   0.00223685 
 -0.995   0.00234938 
 -0.99   0.00246708 
 -0.985   0.00259017 
 -0.98   0.00271888 
 -0.975   0.00285345 
 -0.97   0.00299411 
 -0.965   0.00314113 
 -0.96   0.00329477 
 -0.955   0.00345531 
 -0.95   0.00362304 
 -0.945   0.00379825 
 -0.94   0.00398126 
 -0.935   0.00417239 
 -0.93   0.00437197 
 -0.925   0.00458036 
 -0.92   0.00479792 
 -0.915   0.00502502 
 -0.91   0.00526207 
 -0.905   0.00550947 
 -0.9   0.00576765 
 -0.895   0.00603704 
 -0.89   0.00631812 
 -0.885   0.00661136 
 -0.88   0.00691725 
 -0.875   0.00723633 
 -0.87   0.00756912 
 -0.865   0.00791618 
 -0.86   0.00827811 
 -0.855   0.00865551 
 -0.85   0.00904901 
 -0.845   0.00945927 
 -0.84   0.00988697 
 -0.835   0.0103328 
 -0.83   0.0107976 
 -0.825   0.011282 
 -0.82   0.0117869 
 -0.815   0.0123131 
 -0.81   0.0128615 
 -0.805   0.0134329 
 -0.8   0.0140284 
 -0.795   0.0146489 
 -0.79   0.0152953 
 -0.785   0.0159689 
 -0.78   0.0166706 
 -0.775   0.0174017 
 -0.77   0.0181633 
 -0.765   0.0189566 
 -0.76   0.019783 
 -0.755   0.0206439 
 -0.75   0.0215405 
 -0.745   0.0224744 
 -0.74   0.023447 
 -0.735   0.0244601 
 -0.73   0.0255151 
 -0.725   0.0266138 
 -0.72   0.0277581 
 -0.715   0.0289496 
 -0.71   0.0301904 
 -0.705   0.0314824 
 -0.7   0.0328278 
 -0.695   0.0342286 
 -0.69   0.0356872 
 -0.685   0.0372058 
 -0.68   0.0387869 
 -0.675   0.040433 
 -0.67   0.0421467 
 -0.665   0.0439307 
 -0.66   0.0457879 
 -0.655   0.0477211 
 -0.65   0.0497334 
 -0.645   0.051828 
 -0.64   0.054008 
 -0.635   0.056277 
 -0.63   0.0586383 
 -0.625   0.0610957 
 -0.62   0.0636528 
 -0.615   0.0663136 
 -0.61   0.0690822 
 -0.605   0.0719625 
 -0.6   0.074959 
 -0.595   0.0780761 
 -0.59   0.0813184 
 -0.585   0.0846906 
 -0.58   0.0881975 
 -0.575   0.0918442 
 -0.57   0.0956359 
 -0.565   0.0995777 
 -0.56   0.103675 
 -0.555   0.107934 
 -0.55   0.11236 
 -0.545   0.116958 
 -0.54   0.121736 
 -0.535   0.126698 
 -0.53   0.131852 
 -0.525   0.137202 
 -0.52   0.142757 
 -0.515   0.148523 
 -0.51   0.154505 
 -0.505   0.160711 
 -0.5   0.167148 
 -0.495   0.173821 
 -0.49   0.180739 
 -0.485   0.187908 
 -0.48   0.195333 
 -0.475   0.203023 
 -0.47   0.210984 
 -0.465   0.219222 
 -0.46   0.227743 
 -0.455   0.236554 
 -0.45   0.24566 
 -0.445   0.255067 
 -0.44   0.264781 
 -0.435   0.274807 
 -0.43   0.285148 
 -0.425   0.29581 
 -0.42   0.306796 
 -0.415   0.318108 
 -0.41   0.329751 
 -0.405   0.341724 
 -0.4   0.35403 
 -0.395   0.366669 
 -0.39   0.379641 
 -0.385   0.392944 
 -0.38   0.406576 
 -0.375   0.420534 
 -0.37   0.434813 
 -0.365   0.449408 
 -0.36   0.464313 
 -0.355   0.479521 
 -0.35   0.495022 
 -0.345   0.510806 
 -0.34   0.526864 
 -0.335   0.543181 
 -0.33   0.559745 
 -0.325   0.576541 
 -0.32   0.593552 
 -0.315   0.610763 
 -0.31   0.628154 
 -0.305   0.645706 
 -0.3   0.6634 
 -0.295   0.681213 
 -0.29   0.699125 
 -0.285   0.717111 
 -0.28   0.73515 
 -0.275   0.753216 
 -0.27   0.771285 
 -0.265   0.789334 
 -0.26   0.807336 
 -0.255   0.825267 
 -0.25   0.843102 
 -0.245   0.860817 
 -0.24   0.878387 
 -0.235   0.895789 
 -0.23   0.912999 
 -0.225   0.929994 
 -0.22   0.946753 
 -0.215   0.963256 
 -0.21   0.979481 
 -0.205   0.995412 
 -0.2   1.01103 
 -0.195   1.02632 
 -0.19   1.04126 
 -0.185   1.05585 
 -0.18   1.07006 
 -0.175   1.08389 
 -0.17   1.09733 
 -0.165   1.11037 
 -0.16   1.123 
 -0.155   1.13522 
 -0.15   1.14702 
 -0.145   1.15839 
 -0.14   1.16934 
 -0.135   1.17987 
 -0.13   1.18997 
 -0.125   1.19964 
 -0.12   1.20888 
 -0.115   1.2177 
 -0.11   1.2261 
 -0.105   1.23408 
 -0.1   1.24164 
 -0.095   1.2488 
 -0.09   1.25554 
 -0.085   1.26189 
 -0.08   1.26784 
 -0.075   1.27339 
 -0.07   1.27856 
 -0.065   1.28335 
 -0.06   1.28776 
 -0.055   1.2918 
 -0.05   1.29547 
 -0.045   1.29877 
 -0.04   1.30172 
 -0.035   1.30431 
 -0.03   1.30655 
 -0.025   1.30843 
 -0.02   1.30998 
 -0.015   1.31117 
 -0.01   1.31203 
 -0.005   1.31254 
 8.20524e-16   1.31271 
 0.005   1.31254 
 0.01   1.31203 
 0.015   1.31117 
 0.02   1.30998 
 0.025   1.30843 
 0.03   1.30655 
 0.035   1.30431 
 0.04   1.30172 
 0.045   1.29877 
 0.05   1.29547 
 0.055   1.2918 
 0.06   1.28776 
 0.065   1.28335 
 0.07   1.27856 
 0.075   1.27339 
 0.08   1.26784 
 0.085   1.26189 
 0.09   1.25554 
 0.095   1.2488 
 0.1   1.24164 
 0.105   1.23408 
 0.11   1.2261 
 0.115   1.2177 
 0.12   1.20888 
 0.125   1.19964 
 0.13   1.18997 
 0.135   1.17987 
 0.14   1.16934 
 0.145   1.15839 
 0.15   1.14702 
 0.155   1.13522 
 0.16   1.123 
 0.165   1.11037 
 0.17   1.09733 
 0.175   1.08389 
 0.18   1.07006 
 0.185   1.05585 
 0.19   1.04126 
 0.195   1.02632 
 0.2   1.01103 
 0.205   0.995412 
 0.21   0.979481 
 0.215   0.963256 
 0.22   0.946753 
 0.225   0.929994 
 0.23   0.912999 
 0.235   0.895789 
 0.24   0.878387 
 0.245   0.860817 
 0.25   0.843102 
 0.255   0.825267 
 0.26   0.807336 
 0.265   0.789334 
 0.27   0.771285 
 0.275   0.753216 
 0.28   0.73515 
 0.285   0.717111 
 0.29   0.699125 
 0.295   0.681213 
 0.3   0.6634 
 0.305   0.645706 
 0.31   0.628154 
 0.315   0.610763 
 0.32   0.593552 
 0.325   0.576541 
 0.33   0.559745 
 0.335   0.543181 
 0.34   0.526864 
 0.345   0.510806 
 0.35   0.495022 
 0.355   0.479521 
 0.36   0.464313 
 0.365   0.449408 
 0.37   0.434813 
 0.375   0.420534 
 0.38   0.406576 
 0.385   0.392944 
 0.39   0.379641 
 0.395   0.366669 
 0.4   0.35403 
 0.405   0.341724 
 0.41   0.329751 
 0.415   0.318108 
 0.42   0.306796 
 0.425   0.29581 
 0.43   0.285148 
 0.435   0.274807 
 0.44   0.264781 
 0.445   0.255067 
 0.45   0.24566 
 0.455   0.236554 
 0.46   0.227743 
 0.465   0.219222 
 0.47   0.210984 
 0.475   0.203023 
 0.48   0.195333 
 0.485   0.187908 
 0.49   0.180739 
 0.495   0.173821 
 0.5   0.167148 
 0.505   0.160711 
 0.51   0.154505 
 0.515   0.148523 
 0.52   0.142757 
 0.525   0.137202 
 0.53   0.131852 
 0.535   0.126698 
 0.54   0.121736 
 0.545   0.116958 
 0.55   0.11236 
 0.555   0.107934 
 0.56   0.103675 
 0.565   0.0995777 
 0.57   0.0956359 
 0.575   0.0918442 
 0.58   0.0881975 
 0.585   0.0846906 
 0.59   0.0813184 
 0.595   0.0780761 
 0.6   0.074959 
 0.605   0.0719625 
 0.61   0.0690822 
 0.615   0.0663136 
 0.62   0.0636528 
 0.625   0.0610957 
 0.63   0.0586383 
 0.635   0.056277 
 0.64   0.054008 
 0.645   0.051828 
 0.65   0.0497334 
 0.655   0.0477211 
 0.66   0.0457879 
 0.665   0.0439307 
 0.67   0.0421467 
 0.675   0.040433 
 0.68   0.0387869 
 0.685   0.0372058 
 0.69   0.0356872 
 0.695   0.0342286 
 0.7   0.0328278 
 0.705   0.0314824 
 0.71   0.0301904 
 0.715   0.0289496 
 0.72   0.0277581 
 0.725   0.0266138 
 0.73   0.0255151 
 0.735   0.0244601 
 0.74   0.023447 
 0.745   0.0224744 
 0.75   0.0215405 
 0.755   0.0206439 
 0.76   0.019783 
 0.765   0.0189566 
 0.77   0.0181633 
 0.775   0.0174017 
 0.78   0.0166706 
 0.785   0.0159689 
 0.79   0.0152953 
 0.795   0.0146489 
 0.8   0.0140284 
 0.805   0.0134329 
 0.81   0.0128615 
 0.815   0.0123131 
 0.82   0.0117869 
 0.825   0.011282 
 0.83   0.0107976 
 0.835   0.0103328 
 0.84   0.00988697 
 0.845   0.00945927 
 0.85   0.00904901 
 0.855   0.00865551 
 0.86   0.00827811 
 0.865   0.00791618 
 0.87   0.00756912 
 0.875   0.00723633 
 0.88   0.00691725 
 0.885   0.00661136 
 0.89   0.00631812 
 0.895   0.00603704 
 0.9   0.00576765 
 0.905   0.00550947 
 0.91   0.00526207 
 0.915   0.00502502 
 0.92   0.00479792 
 0.925   0.00458036 
 0.93   0.00437197 
 0.935   0.00417239 
 0.94   0.00398126 
 0.945   0.00379825 
 0.95   0.00362304 
 0.955   0.00345531 
 0.96   0.00329477 
 0.965   0.00314113 
 0.97   0.00299411 
 0.975   0.00285345 
 0.98   0.00271888 
 0.985   0.00259017 
 0.99   0.00246708 
 0.995   0.00234938 
