 126   Amps (Ilim=180) 
 0.2   r0[m] 
 401   Nz data points 
 z[m]  EngeProd 
 -1   0.00246426 
 -0.995   0.00259081 
 -0.99   0.0027234 
 -0.985   0.00286231 
 -0.98   0.00300782 
 -0.975   0.00316022 
 -0.97   0.00331982 
 -0.965   0.00348694 
 -0.96   0.0036619 
 -0.955   0.00384507 
 -0.95   0.00403679 
 -0.945   0.00423744 
 -0.94   0.00444742 
 -0.935   0.00466714 
 -0.93   0.00489702 
 -0.925   0.00513751 
 -0.92   0.00538906 
 -0.915   0.00565217 
 -0.91   0.00592733 
 -0.905   0.00621506 
 -0.9   0.00651592 
 -0.895   0.00683047 
 -0.89   0.00715931 
 -0.885   0.00750304 
 -0.88   0.00786232 
 -0.875   0.00823781 
 -0.87   0.00863022 
 -0.865   0.00904026 
 -0.86   0.00946869 
 -0.855   0.00991631 
 -0.85   0.0103839 
 -0.845   0.0108724 
 -0.84   0.0113827 
 -0.835   0.0119156 
 -0.83   0.0124722 
 -0.825   0.0130534 
 -0.82   0.0136603 
 -0.815   0.014294 
 -0.81   0.0149557 
 -0.805   0.0156465 
 -0.8   0.0163676 
 -0.795   0.0171204 
 -0.79   0.0179062 
 -0.785   0.0187263 
 -0.78   0.0195822 
 -0.775   0.0204755 
 -0.77   0.0214077 
 -0.765   0.0223804 
 -0.76   0.0233953 
 -0.755   0.0244543 
 -0.75   0.025559 
 -0.745   0.0267116 
 -0.74   0.0279139 
 -0.735   0.029168 
 -0.73   0.0304761 
 -0.725   0.0318404 
 -0.72   0.0332633 
 -0.715   0.0347472 
 -0.71   0.0362945 
 -0.705   0.037908 
 -0.7   0.0395903 
 -0.695   0.0413442 
 -0.69   0.0431728 
 -0.685   0.0450789 
 -0.68   0.0470658 
 -0.675   0.0491368 
 -0.67   0.0512953 
 -0.665   0.0535447 
 -0.66   0.0558888 
 -0.655   0.0583313 
 -0.65   0.0608761 
 -0.645   0.0635274 
 -0.64   0.0662893 
 -0.635   0.0691661 
 -0.63   0.0721624 
 -0.625   0.0752829 
 -0.62   0.0785322 
 -0.615   0.0819155 
 -0.61   0.0854377 
 -0.605   0.0891042 
 -0.6   0.0929205 
 -0.595   0.0968921 
 -0.59   0.101025 
 -0.585   0.105324 
 -0.58   0.109797 
 -0.575   0.114449 
 -0.57   0.119287 
 -0.565   0.124317 
 -0.56   0.129547 
 -0.555   0.134982 
 -0.55   0.14063 
 -0.545   0.146498 
 -0.54   0.152593 
 -0.535   0.158923 
 -0.53   0.165495 
 -0.525   0.172317 
 -0.52   0.179397 
 -0.515   0.186741 
 -0.51   0.194358 
 -0.505   0.202256 
 -0.5   0.210442 
 -0.495   0.218924 
 -0.49   0.227711 
 -0.485   0.236809 
 -0.48   0.246226 
 -0.475   0.255969 
 -0.47   0.266046 
 -0.465   0.276464 
 -0.46   0.28723 
 -0.455   0.29835 
 -0.45   0.30983 
 -0.445   0.321676 
 -0.44   0.333893 
 -0.435   0.346486 
 -0.43   0.359461 
 -0.425   0.372819 
 -0.42   0.386564 
 -0.415   0.4007 
 -0.41   0.415226 
 -0.405   0.430145 
 -0.4   0.445456 
 -0.395   0.461159 
 -0.39   0.47725 
 -0.385   0.493728 
 -0.38   0.510588 
 -0.375   0.527824 
 -0.37   0.545432 
 -0.365   0.563402 
 -0.36   0.581727 
 -0.355   0.600396 
 -0.35   0.619398 
 -0.345   0.63872 
 -0.34   0.658348 
 -0.335   0.678268 
 -0.33   0.698462 
 -0.325   0.718913 
 -0.32   0.739602 
 -0.315   0.760509 
 -0.31   0.781612 
 -0.305   0.80289 
 -0.3   0.824319 
 -0.295   0.845875 
 -0.29   0.867532 
 -0.285   0.889266 
 -0.28   0.91105 
 -0.275   0.932857 
 -0.27   0.95466 
 -0.265   0.976432 
 -0.26   0.998145 
 -0.255   1.01977 
 -0.25   1.04128 
 -0.245   1.06265 
 -0.24   1.08386 
 -0.235   1.10487 
 -0.23   1.12566 
 -0.225   1.1462 
 -0.22   1.16648 
 -0.215   1.18646 
 -0.21   1.20614 
 -0.205   1.22547 
 -0.2   1.24445 
 -0.195   1.26306 
 -0.19   1.28127 
 -0.185   1.29908 
 -0.18   1.31647 
 -0.175   1.33342 
 -0.17   1.34992 
 -0.165   1.36596 
 -0.16   1.38153 
 -0.155   1.39663 
 -0.15   1.41124 
 -0.145   1.42536 
 -0.14   1.43899 
 -0.135   1.45212 
 -0.13   1.46474 
 -0.125   1.47686 
 -0.12   1.48848 
 -0.115   1.49959 
 -0.11   1.5102 
 -0.105   1.5203 
 -0.1   1.52991 
 -0.095   1.53901 
 -0.09   1.54762 
 -0.085   1.55573 
 -0.08   1.56335 
 -0.075   1.57049 
 -0.07   1.57714 
 -0.065   1.58332 
 -0.06   1.58902 
 -0.055   1.59425 
 -0.05   1.599 
 -0.045   1.6033 
 -0.04   1.60713 
 -0.035   1.6105 
 -0.03   1.61342 
 -0.025   1.61589 
 -0.02   1.6179 
 -0.015   1.61947 
 -0.01   1.62058 
 -0.005   1.62125 
 8.20524e-16   1.62148 
 0.005   1.62125 
 0.01   1.62058 
 0.015   1.61947 
 0.02   1.6179 
 0.025   1.61589 
 0.03   1.61342 
 0.035   1.6105 
 0.04   1.60713 
 0.045   1.6033 
 0.05   1.599 
 0.055   1.59425 
 0.06   1.58902 
 0.065   1.58332 
 0.07   1.57714 
 0.075   1.57049 
 0.08   1.56335 
 0.085   1.55573 
 0.09   1.54762 
 0.095   1.53901 
 0.1   1.52991 
 0.105   1.5203 
 0.11   1.5102 
 0.115   1.49959 
 0.12   1.48848 
 0.125   1.47686 
 0.13   1.46474 
 0.135   1.45212 
 0.14   1.43899 
 0.145   1.42536 
 0.15   1.41124 
 0.155   1.39663 
 0.16   1.38153 
 0.165   1.36596 
 0.17   1.34992 
 0.175   1.33342 
 0.18   1.31647 
 0.185   1.29908 
 0.19   1.28127 
 0.195   1.26306 
 0.2   1.24445 
 0.205   1.22547 
 0.21   1.20614 
 0.215   1.18646 
 0.22   1.16648 
 0.225   1.1462 
 0.23   1.12566 
 0.235   1.10487 
 0.24   1.08386 
 0.245   1.06265 
 0.25   1.04128 
 0.255   1.01977 
 0.26   0.998145 
 0.265   0.976432 
 0.27   0.95466 
 0.275   0.932857 
 0.28   0.91105 
 0.285   0.889266 
 0.29   0.867532 
 0.295   0.845875 
 0.3   0.824319 
 0.305   0.80289 
 0.31   0.781612 
 0.315   0.760509 
 0.32   0.739602 
 0.325   0.718913 
 0.33   0.698462 
 0.335   0.678268 
 0.34   0.658348 
 0.345   0.63872 
 0.35   0.619398 
 0.355   0.600396 
 0.36   0.581727 
 0.365   0.563402 
 0.37   0.545432 
 0.375   0.527824 
 0.38   0.510588 
 0.385   0.493728 
 0.39   0.47725 
 0.395   0.461159 
 0.4   0.445456 
 0.405   0.430145 
 0.41   0.415226 
 0.415   0.4007 
 0.42   0.386564 
 0.425   0.372819 
 0.43   0.359461 
 0.435   0.346486 
 0.44   0.333893 
 0.445   0.321676 
 0.45   0.30983 
 0.455   0.29835 
 0.46   0.28723 
 0.465   0.276464 
 0.47   0.266046 
 0.475   0.255969 
 0.48   0.246226 
 0.485   0.236809 
 0.49   0.227711 
 0.495   0.218924 
 0.5   0.210442 
 0.505   0.202256 
 0.51   0.194358 
 0.515   0.186741 
 0.52   0.179397 
 0.525   0.172317 
 0.53   0.165495 
 0.535   0.158923 
 0.54   0.152593 
 0.545   0.146498 
 0.55   0.14063 
 0.555   0.134982 
 0.56   0.129547 
 0.565   0.124317 
 0.57   0.119287 
 0.575   0.114449 
 0.58   0.109797 
 0.585   0.105324 
 0.59   0.101025 
 0.595   0.0968921 
 0.6   0.0929205 
 0.605   0.0891042 
 0.61   0.0854377 
 0.615   0.0819155 
 0.62   0.0785322 
 0.625   0.0752829 
 0.63   0.0721624 
 0.635   0.0691661 
 0.64   0.0662893 
 0.645   0.0635274 
 0.65   0.0608761 
 0.655   0.0583313 
 0.66   0.0558888 
 0.665   0.0535447 
 0.67   0.0512953 
 0.675   0.0491368 
 0.68   0.0470658 
 0.685   0.0450789 
 0.69   0.0431728 
 0.695   0.0413442 
 0.7   0.0395903 
 0.705   0.037908 
 0.71   0.0362945 
 0.715   0.0347472 
 0.72   0.0332633 
 0.725   0.0318404 
 0.73   0.0304761 
 0.735   0.029168 
 0.74   0.0279139 
 0.745   0.0267116 
 0.75   0.025559 
 0.755   0.0244543 
 0.76   0.0233953 
 0.765   0.0223804 
 0.77   0.0214077 
 0.775   0.0204755 
 0.78   0.0195822 
 0.785   0.0187263 
 0.79   0.0179062 
 0.795   0.0171204 
 0.8   0.0163676 
 0.805   0.0156465 
 0.81   0.0149557 
 0.815   0.014294 
 0.82   0.0136603 
 0.825   0.0130534 
 0.83   0.0124722 
 0.835   0.0119156 
 0.84   0.0113827 
 0.845   0.0108724 
 0.85   0.0103839 
 0.855   0.00991631 
 0.86   0.00946869 
 0.865   0.00904026 
 0.87   0.00863022 
 0.875   0.00823781 
 0.88   0.00786232 
 0.885   0.00750304 
 0.89   0.00715931 
 0.895   0.00683047 
 0.9   0.00651592 
 0.905   0.00621506 
 0.91   0.00592733 
 0.915   0.00565217 
 0.92   0.00538906 
 0.925   0.00513751 
 0.93   0.00489702 
 0.935   0.00466714 
 0.94   0.00444742 
 0.945   0.00423744 
 0.95   0.00403679 
 0.955   0.00384507 
 0.96   0.0036619 
 0.965   0.00348694 
 0.97   0.00331982 
 0.975   0.00316022 
 0.98   0.00300782 
 0.985   0.00286231 
 0.99   0.0027234 
 0.995   0.00259081 
