 18   Amps (Ilim=180) 
 0.2   r0[m] 
 401   Nz data points 
 z[m]  EngeProd 
 -1   0.000728357 
 -0.995   0.000764307 
 -0.99   0.000801756 
 -0.985   0.000840755 
 -0.98   0.000881357 
 -0.975   0.000923618 
 -0.97   0.000967592 
 -0.965   0.00101334 
 -0.96   0.00106092 
 -0.955   0.00111039 
 -0.95   0.00116182 
 -0.945   0.00121526 
 -0.94   0.0012708 
 -0.935   0.0013285 
 -0.93   0.00138842 
 -0.925   0.00145065 
 -0.92   0.00151526 
 -0.915   0.00158232 
 -0.91   0.00165192 
 -0.905   0.00172414 
 -0.9   0.00179907 
 -0.895   0.0018768 
 -0.89   0.00195742 
 -0.885   0.00204102 
 -0.88   0.0021277 
 -0.875   0.00221756 
 -0.87   0.00231071 
 -0.865   0.00240726 
 -0.86   0.00250731 
 -0.855   0.00261099 
 -0.85   0.00271842 
 -0.845   0.00282971 
 -0.84   0.002945 
 -0.835   0.00306442 
 -0.83   0.00318811 
 -0.825   0.00331621 
 -0.82   0.00344887 
 -0.815   0.00358624 
 -0.81   0.00372849 
 -0.805   0.00387577 
 -0.8   0.00402827 
 -0.795   0.00418615 
 -0.79   0.0043496 
 -0.785   0.00451881 
 -0.78   0.00469399 
 -0.775   0.00487533 
 -0.77   0.00506305 
 -0.765   0.00525738 
 -0.76   0.00545854 
 -0.755   0.00566678 
 -0.75   0.00588234 
 -0.745   0.00610548 
 -0.74   0.00633647 
 -0.735   0.0065756 
 -0.73   0.00682314 
 -0.725   0.00707941 
 -0.72   0.00734471 
 -0.715   0.00761938 
 -0.71   0.00790375 
 -0.705   0.00819817 
 -0.7   0.00850301 
 -0.695   0.00881865 
 -0.69   0.00914549 
 -0.685   0.00948393 
 -0.68   0.00983441 
 -0.675   0.0101974 
 -0.67   0.0105733 
 -0.665   0.0109626 
 -0.66   0.0113658 
 -0.655   0.0117835 
 -0.65   0.0122162 
 -0.645   0.0126643 
 -0.64   0.0131286 
 -0.635   0.0136097 
 -0.63   0.014108 
 -0.625   0.0146244 
 -0.62   0.0151594 
 -0.615   0.0157137 
 -0.61   0.0162882 
 -0.605   0.0168834 
 -0.6   0.0175003 
 -0.595   0.0181396 
 -0.59   0.0188022 
 -0.585   0.0194888 
 -0.58   0.0202005 
 -0.575   0.020938 
 -0.57   0.0217024 
 -0.565   0.0224946 
 -0.56   0.0233157 
 -0.555   0.0241666 
 -0.55   0.0250485 
 -0.545   0.0259625 
 -0.54   0.0269096 
 -0.535   0.027891 
 -0.53   0.0289079 
 -0.525   0.0299616 
 -0.52   0.0310531 
 -0.515   0.0321839 
 -0.51   0.0333552 
 -0.505   0.0345683 
 -0.5   0.0358245 
 -0.495   0.0371251 
 -0.49   0.0384715 
 -0.485   0.039865 
 -0.48   0.041307 
 -0.475   0.0427989 
 -0.47   0.044342 
 -0.465   0.0459376 
 -0.46   0.047587 
 -0.455   0.0492917 
 -0.45   0.0510527 
 -0.445   0.0528713 
 -0.44   0.0547488 
 -0.435   0.0566862 
 -0.43   0.0586845 
 -0.425   0.0607448 
 -0.42   0.0628679 
 -0.415   0.0650545 
 -0.41   0.0673054 
 -0.405   0.069621 
 -0.4   0.0720018 
 -0.395   0.0744479 
 -0.39   0.0769595 
 -0.385   0.0795365 
 -0.38   0.0821784 
 -0.375   0.0848848 
 -0.37   0.087655 
 -0.365   0.090488 
 -0.36   0.0933825 
 -0.355   0.0963372 
 -0.35   0.0993501 
 -0.345   0.102419 
 -0.34   0.105543 
 -0.335   0.108717 
 -0.33   0.111941 
 -0.325   0.115209 
 -0.32   0.11852 
 -0.315   0.121869 
 -0.31   0.125252 
 -0.305   0.128665 
 -0.3   0.132104 
 -0.295   0.135564 
 -0.29   0.13904 
 -0.285   0.142526 
 -0.28   0.146019 
 -0.275   0.149511 
 -0.27   0.152998 
 -0.265   0.156475 
 -0.26   0.159935 
 -0.255   0.163374 
 -0.25   0.166785 
 -0.245   0.170163 
 -0.24   0.173503 
 -0.235   0.1768 
 -0.23   0.180049 
 -0.225   0.183245 
 -0.22   0.186383 
 -0.215   0.189459 
 -0.21   0.192469 
 -0.205   0.19541 
 -0.2   0.198278 
 -0.195   0.201069 
 -0.19   0.203783 
 -0.185   0.206415 
 -0.18   0.208964 
 -0.175   0.211429 
 -0.17   0.213808 
 -0.165   0.2161 
 -0.16   0.218304 
 -0.155   0.220421 
 -0.15   0.22245 
 -0.145   0.224392 
 -0.14   0.226247 
 -0.135   0.228016 
 -0.13   0.229699 
 -0.125   0.231299 
 -0.12   0.232816 
 -0.115   0.234252 
 -0.11   0.235609 
 -0.105   0.236887 
 -0.1   0.23809 
 -0.095   0.239219 
 -0.09   0.240275 
 -0.085   0.241261 
 -0.08   0.242179 
 -0.075   0.24303 
 -0.07   0.243816 
 -0.065   0.244539 
 -0.06   0.245202 
 -0.055   0.245805 
 -0.05   0.246349 
 -0.045   0.246838 
 -0.04   0.247271 
 -0.035   0.24765 
 -0.03   0.247977 
 -0.025   0.248251 
 -0.02   0.248475 
 -0.015   0.248648 
 -0.01   0.248771 
 -0.005   0.248845 
 8.20524e-16   0.248869 
 0.005   0.248845 
 0.01   0.248771 
 0.015   0.248648 
 0.02   0.248475 
 0.025   0.248251 
 0.03   0.247977 
 0.035   0.24765 
 0.04   0.247271 
 0.045   0.246838 
 0.05   0.246349 
 0.055   0.245805 
 0.06   0.245202 
 0.065   0.244539 
 0.07   0.243816 
 0.075   0.24303 
 0.08   0.242179 
 0.085   0.241261 
 0.09   0.240275 
 0.095   0.239219 
 0.1   0.23809 
 0.105   0.236887 
 0.11   0.235609 
 0.115   0.234252 
 0.12   0.232816 
 0.125   0.231299 
 0.13   0.229699 
 0.135   0.228016 
 0.14   0.226247 
 0.145   0.224392 
 0.15   0.22245 
 0.155   0.220421 
 0.16   0.218304 
 0.165   0.2161 
 0.17   0.213808 
 0.175   0.211429 
 0.18   0.208964 
 0.185   0.206415 
 0.19   0.203783 
 0.195   0.201069 
 0.2   0.198278 
 0.205   0.19541 
 0.21   0.192469 
 0.215   0.189459 
 0.22   0.186383 
 0.225   0.183245 
 0.23   0.180049 
 0.235   0.1768 
 0.24   0.173503 
 0.245   0.170163 
 0.25   0.166785 
 0.255   0.163374 
 0.26   0.159935 
 0.265   0.156475 
 0.27   0.152998 
 0.275   0.149511 
 0.28   0.146019 
 0.285   0.142526 
 0.29   0.13904 
 0.295   0.135564 
 0.3   0.132104 
 0.305   0.128665 
 0.31   0.125252 
 0.315   0.121869 
 0.32   0.11852 
 0.325   0.115209 
 0.33   0.111941 
 0.335   0.108717 
 0.34   0.105543 
 0.345   0.102419 
 0.35   0.0993501 
 0.355   0.0963372 
 0.36   0.0933825 
 0.365   0.090488 
 0.37   0.087655 
 0.375   0.0848848 
 0.38   0.0821784 
 0.385   0.0795365 
 0.39   0.0769595 
 0.395   0.0744479 
 0.4   0.0720018 
 0.405   0.069621 
 0.41   0.0673054 
 0.415   0.0650545 
 0.42   0.0628679 
 0.425   0.0607448 
 0.43   0.0586845 
 0.435   0.0566862 
 0.44   0.0547488 
 0.445   0.0528713 
 0.45   0.0510527 
 0.455   0.0492917 
 0.46   0.047587 
 0.465   0.0459376 
 0.47   0.044342 
 0.475   0.0427989 
 0.48   0.041307 
 0.485   0.039865 
 0.49   0.0384715 
 0.495   0.0371251 
 0.5   0.0358245 
 0.505   0.0345683 
 0.51   0.0333552 
 0.515   0.0321839 
 0.52   0.0310531 
 0.525   0.0299616 
 0.53   0.0289079 
 0.535   0.027891 
 0.54   0.0269096 
 0.545   0.0259625 
 0.55   0.0250485 
 0.555   0.0241666 
 0.56   0.0233157 
 0.565   0.0224946 
 0.57   0.0217024 
 0.575   0.020938 
 0.58   0.0202005 
 0.585   0.0194888 
 0.59   0.0188022 
 0.595   0.0181396 
 0.6   0.0175003 
 0.605   0.0168834 
 0.61   0.0162882 
 0.615   0.0157137 
 0.62   0.0151594 
 0.625   0.0146244 
 0.63   0.014108 
 0.635   0.0136097 
 0.64   0.0131286 
 0.645   0.0126643 
 0.65   0.0122162 
 0.655   0.0117835 
 0.66   0.0113658 
 0.665   0.0109626 
 0.67   0.0105733 
 0.675   0.0101974 
 0.68   0.00983441 
 0.685   0.00948393 
 0.69   0.00914549 
 0.695   0.00881865 
 0.7   0.00850301 
 0.705   0.00819817 
 0.71   0.00790375 
 0.715   0.00761938 
 0.72   0.00734471 
 0.725   0.00707941 
 0.73   0.00682314 
 0.735   0.0065756 
 0.74   0.00633647 
 0.745   0.00610548 
 0.75   0.00588234 
 0.755   0.00566678 
 0.76   0.00545854 
 0.765   0.00525738 
 0.77   0.00506305 
 0.775   0.00487533 
 0.78   0.00469399 
 0.785   0.00451881 
 0.79   0.0043496 
 0.795   0.00418615 
 0.8   0.00402827 
 0.805   0.00387577 
 0.81   0.00372849 
 0.815   0.00358624 
 0.82   0.00344887 
 0.825   0.00331621 
 0.83   0.00318811 
 0.835   0.00306442 
 0.84   0.002945 
 0.845   0.00282971 
 0.85   0.00271842 
 0.855   0.00261099 
 0.86   0.00250731 
 0.865   0.00240726 
 0.87   0.00231071 
 0.875   0.00221756 
 0.88   0.0021277 
 0.885   0.00204102 
 0.89   0.00195742 
 0.895   0.0018768 
 0.9   0.00179907 
 0.905   0.00172414 
 0.91   0.00165192 
 0.915   0.00158232 
 0.92   0.00151526 
 0.925   0.00145065 
 0.93   0.00138842 
 0.935   0.0013285 
 0.94   0.0012708 
 0.945   0.00121526 
 0.95   0.00116182 
 0.955   0.00111039 
 0.96   0.00106092 
 0.965   0.00101334 
 0.97   0.000967592 
 0.975   0.000923618 
 0.98   0.000881357 
 0.985   0.000840755 
 0.99   0.000801756 
 0.995   0.000764307 
